KVALUES
Results of phase equilibrium constant Ki at temperature = 530

P(psia)  K[1]	K[2]	K[3]	K[4]	K[5]	K[6]	K[7]	K[8]	K[9]	
      10    87.14445    664.4389    312.5992    40.11449    11.52967    1.733775   0.6709823  0.003310034  3.335604e-007  
      11    79.27369    604.3195    284.2123     36.4868    10.48983    1.578291   0.6111519  0.003022792  3.059595e-007  
      12     72.7155      554.22    260.5558    33.46391    9.623351    1.448736   0.5612996  0.00278349  2.829803e-007  
      13     67.1669    511.8289    240.5382    30.90619    8.890215    1.339123   0.5191217  0.002581064  2.635569e-007  
      14    62.41147    475.4951    223.3798    28.71394    8.261835    1.245176   0.4829728  0.002407611  2.469279e-007  
      15    58.29055    444.0075    208.5088    26.81405    7.717252     1.16376   0.4516466  0.002257336  2.325348e-007  
      16    54.68514    416.4576    195.4964    25.15167    7.240748    1.092525   0.4242386  0.002125894  2.199587e-007  
      17    51.50425    392.1507    184.0146     23.6849    6.820305    1.029673    0.400057  0.002009961  2.088792e-007  
      18     48.6771    370.5465    173.8084    22.38112    6.446577   0.9738058    0.378564  0.001906951  1.990471e-007  
      19    46.14784    351.2183    164.6763     21.2146    6.112186   0.9238209   0.3593349  0.001814825  1.902656e-007  
      20    43.87177    333.8248    156.4573    20.16473    5.811231   0.8788353   0.3420301  0.00173195  1.823774e-007  
      21    41.81272    318.0896     149.021    19.21486    5.538932   0.8381347   0.3263745  0.001657004  1.752548e-007  
      22     39.9411    303.7867    142.2605    18.35135    5.291383   0.8011346   0.3121433  0.001588906  1.687938e-007  
      23    38.23244    290.7292    136.0878    17.56292    5.065355   0.7673522   0.2991506  0.001526762  1.629079e-007  
      24    36.66647    278.7625    130.4294    16.84018    4.858144   0.7363832    0.287241  0.001469829  1.57526e-007  
      25     35.2259    267.7538    125.2235    16.17528    4.667516   0.7078935   0.2762855  0.001417481  1.525868e-007  
      26    33.89634    257.5935    120.4181    15.56153    4.491545   0.6815955   0.2661736  0.00136919  1.480398e-007  
      27    32.66544    248.1873    115.9685    14.99324    4.328605   0.6572456   0.2568116  0.001324503  1.438413e-007  
      28    31.52263    239.4543    111.8367    14.46555    4.177298   0.6346351    0.248119  0.001283036  1.399541e-007  
      29    30.45881     231.325    107.9898    13.97425    4.036421    0.613584   0.2400266  0.001244455  1.36346e-007  
      30    29.46606    223.7388    104.3993    13.51571    3.904933   0.5939364   0.2324745  0.00120847  1.329893e-007  
      31    28.53751    216.6432    101.0403    13.08675    3.781924   0.5755566   0.2254103  0.001174832  1.298595e-007  
      32    27.66713    209.9922    97.89127    12.68461    3.666599   0.5583258   0.2187882  0.001143319  1.269354e-007  
      33    26.84964    203.7453      94.933    12.30684    3.558261   0.5421394   0.2125682  0.001113739  1.241984e-007  
      34    26.08037    197.8668    92.14869     11.9513    3.456294   0.5269054   0.2067147  0.00108592  1.21632e-007  
      35    25.35518    192.3252    89.52342    11.61608    3.360151   0.5125423   0.2011963  0.001059712  1.192215e-007  
      36    24.67039    187.0922    87.04395    11.29949    3.269348   0.4989775   0.1959851  0.001034981  1.16954e-007  
      37    24.02272    182.1428    84.69845    11.00002    3.183452   0.4861463   0.1910562  0.001011605  1.148179e-007  
      38    23.40925    177.4546    82.47633    10.71632    3.102076   0.4739909   0.1863873  0.0009894791  1.128027e-007  
      39    22.82734    173.0074    80.36812    10.44717    3.024872   0.4624593   0.1819584  0.0009685056  1.108992e-007  
      40    22.27461    168.7831    78.36526    10.19149    2.951529   0.4515049   0.1777516  0.0009485983  1.09099e-007  
      41    21.74893    164.7653    76.46004    9.948287    2.881765   0.4410854   0.1737505  0.0009296789  1.073944e-007  
      42    21.24836    160.9393    74.64548    9.716674    2.815323   0.4311627   0.1699405  0.0009116766  1.057787e-007  
      43    20.77115    157.2915    72.91527    9.495841    2.751973   0.4217022   0.1663083  0.0008945272  1.042455e-007  
      44    20.31569    153.8098    71.26364    9.285056    2.691504   0.4126724   0.1628417  0.0008781723  1.027893e-007  
      45    19.88054     150.483    69.68535    9.083647    2.633724   0.4040448   0.1595298  0.0008625587  1.014049e-007  
      46    19.46437     147.301    68.17561    8.891005    2.578459   0.3957931   0.1563624  0.0008476379  1.000874e-007  
      47    19.06596    144.2545    66.73006     8.70657    2.525548   0.3878933   0.1533302  0.0008333653  9.883269e-008  
      48    18.68419    141.3349    65.34467     8.52983    2.474845   0.3803237    0.150425  0.0008197002  9.76367e-008  
      49    18.31804    138.5344    64.01575    8.360314    2.426214   0.3730639   0.1476388  0.0008066052  9.649579e-008  
      50    17.96658    135.8458    62.73992    8.197589    2.379533   0.3660954   0.1449646  0.0007940457  9.540662e-008  
      51    17.62893    133.2625    61.51406    8.041255    2.334686   0.3594013   0.1423957  0.00078199  9.436608e-008  
      52    17.30428    130.7783    60.33526    7.890945    2.291567   0.3529656   0.1399262  0.0007704089  9.337132e-008  
      53    16.99191    128.3875    59.20088    7.746317     2.25008   0.3467738   0.1375503  0.0007592752  9.241969e-008  
      54    16.69113     126.085    58.10843    7.607057    2.210134   0.3408124   0.1352629  0.0007485637  9.150873e-008  
      55    16.40129    123.8659    57.05563    7.472871    2.171646   0.3350689   0.1330591  0.0007382513  9.063618e-008  
      56    16.12181    121.7255    56.04035    7.343488    2.134536   0.3295317   0.1309344  0.0007283164  8.979993e-008  
      57    15.85213    119.6598    55.06062    7.218655    2.098734   0.3241898   0.1288848  0.0007187387  8.8998e-008  
      58    15.59175    117.6649    54.11459    7.098137    2.064172   0.3190334   0.1269063  0.0007094998  8.822858e-008  
      59     15.3402     115.737    53.20055    6.981715    2.030786   0.3140528   0.1249953  0.000700582  8.748997e-008  
      60    15.09701    113.8728    52.31689    6.869185    1.998519   0.3092395   0.1231484  0.0006919692  8.678056e-008  
      61    14.86179    112.0691    51.46213    6.760353    1.967315   0.3045851   0.1213625  0.0006836461  8.609889e-008  
      62    14.63414     110.323    50.63485    6.655043    1.937123   0.3000821   0.1196346  0.0006755986  8.544356e-008  
      63    14.41369    108.6317    49.83376    6.553085    1.907895   0.2957232    0.117962  0.0006678134  8.481328e-008  
      64    14.20011    106.9925    49.05762    6.454324    1.879586   0.2915016    0.116342  0.000660278  8.420684e-008  
      65    13.99308    105.4031    48.30528     6.35861    1.852154   0.2874112   0.1147722  0.0006529807  8.36231e-008  
      66    13.79229    103.8611    47.57566    6.265807    1.825559   0.2834459   0.1132504  0.0006459107  8.3061e-008  
      67    13.59747    102.3644    46.86774    6.175783    1.799763   0.2796001   0.1117744  0.0006390575  8.251954e-008  
      68    13.40834     100.911    46.18055    6.088415    1.774731   0.2758686   0.1103422  0.0006324115  8.199777e-008  
      69    13.22466    99.49892    45.51321    6.003589    1.750431   0.2722465   0.1089518  0.0006259636  8.149482e-008  
      70    13.04619    98.12646    44.86486    5.921194    1.726831   0.2687289   0.1076015  0.0006197052  8.100987e-008  
      71    12.87272    96.79188    44.23469    5.841129    1.703901   0.2653116   0.1062895  0.0006136283  8.054212e-008  
      72    12.70402    95.49361    43.62195    5.763296    1.681613   0.2619903   0.1050144  0.0006077251  8.009086e-008  
      73     12.5399    94.23012    43.02592    5.687603    1.659942   0.2587612   0.1037745  0.0006019885  7.965538e-008  
      74    12.38018    93.00001    42.44593    5.613963    1.638862   0.2556204   0.1025684  0.0005964116  7.923504e-008  
      75    12.22467    91.80192    41.88134    5.542295    1.618349   0.2525644   0.1013948  0.0005909881  7.882922e-008  
      76    12.07321    90.63459    41.33153    5.472519    1.598381     0.24959   0.1002524  0.0005857118  7.843736e-008  
      77    11.92566    89.49699    40.79591     5.40456    1.578935   0.2466935  0.09913991  0.0005805768  7.805891e-008  
      78    11.78184    88.38763    40.27398    5.338352    1.559995   0.2438726   0.0980563  0.000575578  7.769332e-008  
      79     11.6416    87.30559    39.76519    5.273828    1.541539   0.2411242  0.09700041  0.00057071  7.734013e-008  
      80    11.50483    86.24985    39.26907    5.210923     1.52355   0.2384455  0.09597121  0.0005659679  7.699888e-008  
      81     11.3714    85.21945    38.78513    5.149577    1.506009   0.2358339   0.0949677  0.0005613471  7.666912e-008  
      82    11.24117    84.21344    38.31293    5.089733    1.488902    0.233287  0.09398893  0.0005568432  7.635045e-008  
      83    11.11403    83.23095    37.85205    5.031337    1.472211   0.2308024  0.09303403  0.0005524518  7.604248e-008  
      84    10.98988    82.27115    37.40209    4.974336    1.455922   0.2283779  0.09210212  0.000548169  7.574483e-008  
      85     10.8686    81.33323    36.96266    4.918682    1.440021   0.2260113   0.0911924  0.000543991  7.545715e-008  
      86     10.7501    80.41643     36.5334    4.864328    1.424494   0.2237007   0.0903041  0.0005399141  7.517911e-008  
      87    10.63428    79.52004    36.11395    4.811228    1.409328   0.2214442  0.08943647  0.000535935  7.49104e-008  
      88    10.52104    78.64336    35.70398    4.759339    1.394512   0.2192397  0.08858882  0.0005320502  7.46507e-008  
      89    10.41031    77.78573    35.30318    4.708621    1.380032   0.2170857  0.08776045  0.0005282567  7.439974e-008  
      90      10.302    76.94652    34.91124    4.659035    1.365878   0.2149803  0.08695074  0.0005245514  7.415724e-008  
      91    10.19602    76.12514    34.52787    4.610543    1.352039   0.2129221  0.08615907  0.0005209315  7.392294e-008  
      92    10.09231      75.321    34.15279    4.563109    1.338505   0.2109094  0.08538484  0.0005173942  7.36966e-008  
      93    9.990783    74.53356    33.78574    4.516699    1.325266   0.2089407   0.0846275  0.0005139369  7.347798e-008  
      94    9.891378    73.76229    33.42645     4.47128    1.312312   0.2070148  0.08388651  0.0005105571  7.326685e-008  
      95    9.794024    73.00669    33.07469    4.426822    1.299634   0.2051301  0.08316134  0.0005072524  7.3063e-008  
      96     9.69866    72.26628    32.73022    4.383293    1.287224   0.2032855  0.08245151  0.0005040205  7.286623e-008  
      97    9.605223    71.54059    32.39281    4.340665    1.275074   0.2014796  0.08175654  0.0005008592  7.267635e-008  
      98    9.513655    70.82919    32.06226    4.298911    1.263174   0.1997113  0.08107598  0.0004977663  7.249316e-008  
      99      9.4239    70.13164    31.73835    4.258004    1.251519   0.1979794  0.08040938  0.0004947399  7.231648e-008  
     100    9.335903    69.44754    31.42089    4.217918    1.240099   0.1962828  0.07975634  0.000491778  7.214615e-008  
     101    9.249612    68.77649    31.10969    4.178628    1.228909   0.1946206  0.07911644  0.0004888788  7.1982e-008  
     102    9.164978    68.11813    30.80456    4.140113    1.217942   0.1929915  0.07848931  0.0004860404  7.182388e-008  
     103    9.081953    67.47209    30.50532    4.102348     1.20719   0.1913948  0.07787457  0.0004832611  7.167164e-008  
     104    9.000491    66.83801    30.21182    4.065312    1.196648   0.1898294  0.07727186  0.0004805393  7.152512e-008  
     105    8.920547    66.21558    29.92387    4.028984     1.18631   0.1882945  0.07668084  0.0004778734  7.13842e-008  
     106    8.842079    65.60446    29.64134    3.993345     1.17617   0.1867892  0.07610118  0.0004752619  7.124875e-008  
     107    8.765046    65.00434    29.36407    3.958374    1.166222   0.1853126  0.07553256  0.0004727032  7.111862e-008  
     108    8.689409    64.41493     29.0919    3.924053     1.15646   0.1838639  0.07497467  0.000470196  7.099371e-008  
     109    8.615129    63.83595    28.82471    3.890365    1.146881   0.1824425  0.07442723  0.0004677389  7.08739e-008  
     110    8.542169     63.2671    28.56236    3.857292    1.137478   0.1810474  0.07388995  0.0004653306  7.075906e-008  
     111    8.470496    62.70813    28.30472    3.824817    1.128248   0.1796781  0.07336254  0.0004629698  7.06491e-008  
     112    8.400074    62.15878    28.05166    3.792924    1.119184   0.1783338  0.07284476  0.0004606553  7.054391e-008  
     113    8.330871    61.61879    27.80305    3.761598    1.110284   0.1770138  0.07233634  0.0004583859  7.044339e-008  
     114    8.262854    61.08794     27.5588    3.730823    1.101542   0.1757175  0.07183703  0.0004561604  7.034744e-008  
     115    8.195994    60.56598    27.31878    3.700587    1.092954   0.1744443  0.07134661  0.0004539779  7.025597e-008  
     116    8.130262     60.0527    27.08287    3.670873    1.084516   0.1731937  0.07086484  0.0004518372  7.016889e-008  
     117    8.065627    59.54787    26.85099    3.641669    1.076225   0.1719649   0.0703915  0.0004497372  7.008611e-008  
     118    8.002064    59.05129    26.62303    3.612963    1.068077   0.1707574  0.06992638  0.0004476771  7.000755e-008  
     119    7.939545    58.56276    26.39888    3.584741    1.060068   0.1695708  0.06946927  0.0004456558  6.993313e-008  
     120    7.878044    58.08208    26.17846    3.556991    1.052194   0.1684044  0.06901996  0.0004436724  6.986276e-008  
     121    7.817537    57.60906    25.96166    3.529702    1.044453   0.1672578  0.06857828  0.000441726  6.979639e-008  
     122       7.758    57.14352    25.74842    3.502862     1.03684   0.1661305  0.06814403  0.0004398158  6.973392e-008  
     123    7.699409    56.68529    25.53862     3.47646    1.029354    0.165022  0.06771703  0.0004379409  6.96753e-008  
     124    7.641742    56.23418    25.33221    3.450486     1.02199   0.1639318   0.0672971  0.0004361005  6.962045e-008  
     125    7.584976    55.79004    25.12908    3.424929    1.014745   0.1628596  0.06688408  0.0004342938  6.956931e-008  
     126    7.529092     55.3527    24.92917     3.39978    1.007618   0.1618048  0.06647781  0.0004325201  6.952182e-008  
     127    7.474068    54.92201     24.7324    3.375028    1.000605   0.1607672  0.06607812  0.0004307786  6.947791e-008  
     128    7.419884    54.49781     24.5387    3.350665   0.9937027   0.1597462  0.06568486  0.0004290686  6.943752e-008  
     129    7.366522    54.07997      24.348    3.326681   0.9869095   0.1587414  0.06529788  0.0004273894  6.940061e-008  
     130    7.313962    53.66833    24.16022    3.303068   0.9802225   0.1577526  0.06491704  0.0004257404  6.936711e-008  
     131    7.262187    53.26276     23.9753    3.279817   0.9736394   0.1567793   0.0645422  0.0004241208  6.933696e-008  
     132    7.211179    52.86313    23.79317     3.25692   0.9671577   0.1558212  0.06417322  0.0004225301  6.931012e-008  
     133    7.160921    52.46931    23.61378    3.234368   0.9607751   0.1548779  0.06380997  0.0004209677  6.928654e-008  
     134    7.111397    52.08116    23.43707    3.212155   0.9544895   0.1539491  0.06345233  0.0004194329  6.926617e-008  
     135     7.06259    51.69858    23.26296    3.190273   0.9482985   0.1530345  0.06310017  0.0004179252  6.924896e-008  
     136    7.014485    51.32143    23.09141    3.168713   0.9422002   0.1521337  0.06275336  0.000416444  6.923486e-008  
     137    6.967067    50.94961    22.92237     3.14747   0.9361924   0.1512466   0.0624118  0.0004149888  6.922384e-008  
     138    6.920321    50.58299    22.75576    3.126536   0.9302733   0.1503726  0.06207537  0.000413559  6.921584e-008  
     139    6.874233    50.22148    22.59155    3.105905   0.9244408   0.1495117  0.06174396  0.0004121541  6.921082e-008  
     140     6.82879    49.86497    22.42969     3.08557   0.9186932   0.1486635  0.06141746  0.0004107736  6.920875e-008  
     141    6.783976    49.51335    22.27011    3.065525   0.9130285   0.1478276  0.06109576  0.0004094171  6.920959e-008  
     142    6.739781    49.16653    22.11279    3.045763   0.9074451    0.147004  0.06077878  0.0004080841  6.92133e-008  
     143     6.69619     48.8244    21.95766     3.02628   0.9019412   0.1461923  0.06046641  0.0004067741  6.921983e-008  
     144    6.653192    48.48687    21.80468    3.007068   0.8965151   0.1453922  0.06015855  0.0004054866  6.922917e-008  
     145    6.610774    48.15384    21.65381    2.988123   0.8911652   0.1446035  0.05985511  0.0004042212  6.924126e-008  
     146    6.568926    47.82524      21.505    2.969438     0.88589    0.143826    0.059556  0.0004029776  6.925608e-008  
     147    6.527634    47.50097    21.35822    2.951009    0.880688   0.1430595  0.05926114  0.0004017553  6.927359e-008  
     148    6.486889    47.18094    21.21342     2.93283   0.8755575   0.1423037  0.05897044  0.0004005538  6.929377e-008  
     149    6.446679    46.86508    21.07056    2.914897   0.8704973   0.1415584  0.05868381  0.0003993728  6.931658e-008  
     150    6.406994     46.5533    20.92961    2.897204   0.8655058   0.1408234  0.05840117  0.000398212  6.934198e-008  
     151    6.367824    46.24553    20.79052    2.879746   0.8605816   0.1400985  0.05812246  0.0003970709  6.936997e-008  
     152    6.329158    45.94168    20.65326     2.86252   0.8557236   0.1393835  0.05784758  0.0003959492  6.940049e-008  
     153    6.290988    45.64168     20.5178     2.84552   0.8509303   0.1386782  0.05757646  0.0003948466  6.943354e-008  
     154    6.253303    45.34546    20.38409    2.828742   0.8462005   0.1379824  0.05730904  0.0003937626  6.946907e-008  
     155    6.216095    45.05295    20.25211    2.812181   0.8415329   0.1372959  0.05704523  0.000392697  6.950707e-008  
     156    6.179354    44.76409    20.12183    2.795835   0.8369264   0.1366186  0.05678498  0.0003916494  6.954751e-008  
     157    6.143071    44.47879     19.9932    2.779697   0.8323797   0.1359503  0.05652821  0.0003906196  6.959036e-008  
     158    6.107239      44.197     19.8662    2.763765   0.8278918   0.1352908  0.05627487  0.0003896072  6.96356e-008  
     159    6.071848    43.91865     19.7408    2.748035   0.8234615   0.1346399  0.05602487  0.0003886119  6.968321e-008  
     160    6.036891    43.64368    19.61696    2.732503   0.8190877   0.1339975  0.05577817  0.0003876334  6.973317e-008  
     161     6.00236    43.37203    19.49467    2.717164   0.8147694   0.1333634   0.0555347  0.0003866714  6.978546e-008  
     162    5.968246    43.10363    19.37389    2.702016   0.8105056   0.1327374  0.05529441  0.0003857257  6.984004e-008  
     163    5.934543    42.83844    19.25459    2.687055   0.8062951   0.1321195  0.05505723  0.0003847959  6.989691e-008  
     164    5.901243    42.57639    19.13674    2.672278   0.8021371   0.1315095   0.0548231  0.0003838819  6.995605e-008  
     165    5.868339    42.31743    19.02033    2.657681   0.7980306   0.1309071  0.05459198  0.0003829833  7.001742e-008  
     166    5.835824     42.0615    18.90531    2.643261   0.7939747   0.1303124  0.05436381  0.0003820999  7.008102e-008  
     167     5.80369    41.80855    18.79168    2.629015   0.7899684   0.1297251  0.05413854  0.0003812315  7.014683e-008  
     168    5.771932    41.55853     18.6794    2.614939   0.7860109   0.1291451  0.05391611  0.0003803778  7.021483e-008  
