 % Reservoir Output 
 % Unit for Total Component: B.O. ~ lb/day || Compositional ~ mol/day 

time	pres	temp	comp0	comp1	
day	psi	F	**	**	
         0	   2999.93	       530	64628.7	0	
    0.0001	   3001.01	       530	64628.4	2.96613	
0.000134346	   3001.27	       530	64628.3	3.71775	
0.000163104	   3001.45	       530	64628.2	4.23632	
0.000190786	    3001.6	       530	64628.2	4.6507	
0.000219404	   3001.71	       530	64628.1	5.01075	
0.000251071	   3001.82	       530	64628.1	5.34085	
 0.0002869	   3001.93	       530	64628	5.64473	
0.000328315	   3002.03	       530	64628	5.92423	
0.000377267	   3002.12	       530	64628	6.18025	
0.00043655	    3002.2	       530	64627.9	6.41364	
0.000510322	   3002.28	       530	64627.9	6.62613	
0.000604956	   3002.35	       530	64627.9	6.82183	
0.000730444	   3002.42	       530	64627.8	7.00941	
0.000902654	    3002.5	       530	64627.8	7.20482	
0.00114243	   3002.58	       530	64627.8	7.43007	
0.00146868	   3002.68	       530	64627.7	7.70579	
0.00190173	    3002.8	       530	64627.7	8.05044	
0.00246291	   3002.95	       530	64627.6	8.47708	
0.00317511	   3003.13	       530	64627.5	8.99438	
0.00406473	   3003.34	       530	64627.4	9.60931	
0.00516484	   3003.58	       530	64627.3	10.3299	
0.00651954	   3003.85	       530	64627.1	11.1675	
0.00818925	   3004.17	       530	64627	12.1386	
 0.0102576	   3004.53	       530	64626.8	13.2665	
 0.0128409	   3004.95	       530	64626.5	14.5826	
 0.0160717	   3005.44	       530	64626.2	16.116	
 0.0200866	      3006	       530	64625.9	17.89	
 0.0251007	   3006.66	       530	64625.5	19.9466	
 0.0314378	   3007.42	       530	64625	22.3533	
 0.0396022	    3008.3	       530	64624.5	25.219	
 0.0504124	   3009.34	       530	64623.7	28.7214	
 0.0651067	   3010.91	       530	64622.8	33.9326	
 0.0835378	   3013.55	       530	64621.6	42.2742	
  0.100905	   3016.15	       530	64620.6	50.4424	
  0.118374	   3018.74	       530	64619.6	58.6379	
  0.137157	   3021.44	       530	64618.5	67.2685	
  0.158348	   3024.34	       530	64617.4	76.7222	
  0.183226	   3027.55	       530	64616.1	87.3869	
  0.213093	   3031.14	       530	64614.6	99.6039	
  0.249776	   3036.31	       530	64612.7	117.358	
  0.286987	   3041.95	       530	64610.9	136.206	
  0.327029	   3048.06	       530	64609	156.636	
  0.370612	   3054.57	       530	64606.9	178.496	
  0.418809	   3061.45	       530	64604.7	201.882	
  0.473121	   3068.96	       530	64602.4	227.878	
  0.535906	   3078.38	       530	64599.7	260.616	
  0.603662	   3089.33	       530	64596.7	298.442	
   0.67828	   3101.64	       530	64593.5	340.778	
   0.75995	   3115.21	       530	64590.2	388.04	
  0.852406	   3131.68	       530	64586.3	446.12	
  0.954608	   3151.02	       530	64582.3	513.621	
   1.06691	   3173.12	       530	64577.8	590.506	
   1.18969	   3197.96	       530	64573	676.968	
   1.32234	   3225.17	       530	64567.8	771.493	
   1.46488	   3254.19	       530	64562.3	873.313	
   1.61308	   3283.95	       530	64556.4	979.16	
   1.76317	   3313.78	       530	64550.5	1085.9	
   1.91428	   3343.43	       530	64544.4	1192.36	
   2.06799	    3373.1	       530	64538.2	1299.3	
   2.22391	   3402.62	       530	64531.7	1406.15	
   2.38418	   3432.32	       530	64525	1514.12	
   2.54962	   3462.23	       530	64517.8	1623.56	
   2.72184	   3492.53	       530	64510.1	1735.52	
   2.90497	   3523.99	       530	64501.7	1852.14	
    3.1061	   3557.57	       530	64492.2	1977.22	
   3.33819	   3595.01	       530	64480.7	2118.31	
   3.60047	   3635.86	       530	64466.8	2273.75	
   3.89446	   3679.89	       530	64450.7	2442.42	
   4.24604	   3729.96	       530	64430.2	2638.65	
   4.64179	   3783.85	       530	64405.4	2854	
   5.09975	   3843.47	       530	64374.7	3096.35	
   5.61703	   3907.57	       530	64337.1	3361.8	
   6.20852	   3976.74	       530	64290.5	3655.16	
   6.87659	   4049.94	       530	64233.4	3975.06	
   7.63018	   4126.77	       530	64163.6	4322.06	
   8.48487	   4206.93	       530	64077.8	4699.57	
   9.45374	   4289.46	       530	63972.8	5106.93	
   10.4537	   4366.19	       530	63856.8	5509.22	
   11.4537	   4435.79	       530	63733.8	5895.53	
   12.4537	   4499.44	       530	63604.5	6266.78	
   13.4537	    4557.7	       530	63469.4	6623.46	
   14.4537	   4611.06	       530	63329	6968	
   15.4537	   4660.03	       530	63183	7300.64	
   16.4537	    4704.8	       530	63032.5	7621.33	
   17.4537	   4745.78	       530	62878.3	7932.49	
   18.4537	   4783.37	       530	62719.8	8235.64	
   19.4537	   4818.05	       530	62558.1	8529.76	
   20.4537	   4849.57	       530	62392.9	8815.5	
   21.4537	   4878.32	       530	62224.9	9094.22	
   22.4537	   4904.63	       530	62054.2	9366.9	
   23.4537	   4928.71	       530	61880.7	9633.97	
   24.4537	   4950.76	       530	61704.9	9895.55	
   25.4537	   4970.87	       530	61526.9	10152.3	
   26.4537	   4989.27	       530	61347.1	10404.2	
   27.4537	   5006.03	       530	61165.6	10652.4	
   28.4537	   5021.39	       530	60982.3	10897.3	
   29.4537	   5035.51	       530	60797.6	11138.9	
   30.4537	   5048.44	       530	60611.6	11377.5	
   31.4537	   5060.24	       530	60424.2	11613.3	
   32.4537	   5071.05	       530	60235.8	11846.9	
   33.4537	   5081.01	       530	60046.4	12078.5	
   34.4537	   5090.26	       530	59855.9	12308.3	
   35.4537	   5098.79	       530	59664.6	12536.1	
   36.4537	    5106.6	       530	59472.4	12762.2	
   37.4537	   5113.79	       530	59279.6	12986.8	
   38.4537	   5120.39	       530	59086.1	13210.2	
   39.4537	   5126.45	       530	58891.9	13432.6	
   40.4537	   5132.04	       530	58697	13654.3	
   41.4537	   5137.23	       530	58501.5	13875.5	
   42.4537	   5142.15	       530	58305.3	14096.1	
   43.4537	   5146.79	       530	58108.6	14316	
   44.4537	    5151.1	       530	57911.3	14535.3	
   45.4537	   5155.14	       530	57713.5	14754.3	
   46.4537	   5158.94	       530	57515.4	14973	
   47.4537	   5162.61	       530	57316.8	15191.4	
   48.4537	   5166.12	       530	57118.1	15409.5	
   49.4537	   5169.56	       530	56919.2	15627.1	
   50.4537	    5172.9	       530	56720.3	15844.3	
   51.4537	   5176.15	       530	56521.5	16061	
   52.4537	   5179.29	       530	56322.7	16277.2	
   53.4537	   5182.29	       530	56124.3	16493.1	
   54.4537	   5185.27	       530	55926	16708.7	
   55.4537	   5188.24	       530	55728	16923.9	
   56.4537	   5191.17	       530	55530.2	17138.8	
   57.4537	   5194.09	       530	55332.9	17353.2	
   58.4537	      5197	       530	55135.8	17567.3	
   59.4537	   5199.88	       530	54939.2	17781	
   60.4537	   5202.81	       530	54743.1	17994.2	
   61.4537	   5205.75	       530	54547.6	18206.9	
   62.4537	   5208.71	       530	54352.7	18419.1	
   63.4537	   5211.71	       530	54158.5	18630.7	
   64.4537	   5214.73	       530	53965.1	18841.7	
   65.4537	   5217.82	       530	53772.7	19052.1	
   66.4537	   5221.01	       530	53581.2	19261.8	
   67.4537	   5224.31	       530	53390.8	19470.6	
   68.4537	   5227.69	       530	53201.6	19678.4	
   69.4537	   5231.16	       530	53013.8	19885.2	
   70.4537	   5234.77	       530	52827.5	20090.9	
   71.4537	    5238.5	       530	52642.9	20295.3	
   72.4537	   5242.36	       530	52460	20498.3	
   73.4537	   5246.37	       530	52279	20699.8	
   74.4537	   5250.47	       530	52100	20899.6	
   75.4537	   5254.72	       530	51923	21097.7	
   76.4537	   5259.12	       530	51748.3	21293.8	
   77.4537	   5263.64	       530	51576	21487.9	
   78.4537	   5268.25	       530	51406.1	21679.9	
   79.4537	   5272.97	       530	51238.7	21869.7	
   80.4537	   5277.82	       530	51073.9	22057.2	
   81.4537	   5282.81	       530	50911.7	22242.3	
   82.4537	   5287.91	       530	50752.3	22424.9	
   83.4537	   5293.13	       530	50595.6	22604.9	
   84.4537	   5298.43	       530	50441.6	22782.1	
   85.4537	   5303.76	       530	50290.4	22956.6	
   86.4537	   5309.18	       530	50142	23128.3	
   87.4537	   5314.66	       530	49996.4	23297.1	
   88.4537	   5320.15	       530	49853.5	23463	
   89.4537	   5325.67	       530	49713.4	23625.9	
   90.4537	    5331.2	       530	49576.1	23785.9	
   91.4537	    5336.7	       530	49441.4	23942.8	
   92.4537	   5342.17	       530	49309.3	24096.9	
   93.4537	   5347.54	       530	49179.7	24248	
   94.4537	   5352.81	       530	49052.5	24396.2	
   95.4537	      5358	       530	48927.6	24541.6	
   96.4537	    5363.1	       530	48805.1	24684.2	
   97.4537	   5368.09	       530	48684.8	24824.2	
   98.4537	   5372.96	       530	48566.6	24961.4	
   99.4537	   5377.68	       530	48450.3	25096.1	
   100.454	   5382.28	       530	48335.9	25228.3	
   101.454	   5386.75	       530	48223.5	25358.1	
   102.454	   5391.11	       530	48112.9	25485.5	
   103.454	   5395.33	       530	48003.9	25610.7	
   104.454	   5399.38	       530	47896.4	25733.8	
   105.454	   5403.29	       530	47790.5	25854.9	
   106.454	   5407.06	       530	47685.9	25974	
   107.454	   5410.72	       530	47582.7	26091.3	
   108.454	   5414.21	       530	47480.8	26206.7	
   109.454	   5417.57	       530	47380.2	26320.3	
   110.454	    5420.8	       530	47280.9	26432.1	
   111.454	   5423.89	       530	47182.8	26542.2	
   112.454	   5426.86	       530	47085.9	26650.7	
   113.454	    5429.7	       530	46990.1	26757.6	
   114.454	   5432.41	       530	46895.3	26863	
   115.454	   5435.02	       530	46801.5	26967	
   116.454	   5437.53	       530	46708.7	27069.7	
   117.454	   5439.94	       530	46616.9	27171	
   118.454	   5442.26	       530	46525.9	27271.1	
   119.454	   5444.49	       530	46435.8	27370	
   120.454	   5446.62	       530	46346.6	27467.7	
   121.454	   5448.66	       530	46258.2	27564.3	
   122.454	   5450.63	       530	46170.7	27659.7	
   123.454	   5452.51	       530	46083.9	27754.2	
   124.454	   5454.31	       530	45997.8	27847.5	
   125.454	   5456.05	       530	45912.6	27939.9	
   126.454	   5457.72	       530	45828	28031.4	
   127.454	   5459.28	       530	45744.1	28121.7	
   128.454	   5460.75	       530	45660.9	28211.1	
   129.454	   5462.15	       530	45578.4	28299.7	
   130.454	   5463.48	       530	45496.3	28387.4	
   131.454	   5464.72	       530	45414.9	28474.4	
   132.454	   5465.91	       530	45333.9	28560.6	
   133.454	   5467.04	       530	45253.5	28646	
   134.454	   5468.11	       530	45173.7	28730.7	
   135.454	   5469.13	       530	45094.3	28814.8	
   136.454	   5470.11	       530	45015.4	28898.3	
   137.454	   5471.04	       530	44936.9	28981.1	
   138.454	   5471.93	       530	44858.9	29063.3	
   139.454	   5472.78	       530	44781.3	29145	
   140.454	   5473.58	       530	44704.1	29226.1	
   141.454	   5474.34	       530	44627.3	29306.7	
   142.454	   5475.05	       530	44550.8	29386.8	
   143.454	   5475.72	       530	44474.7	29466.4	
   144.454	   5476.36	       530	44399	29545.5	
   145.454	   5476.97	       530	44323.6	29624.1	
   146.454	   5477.55	       530	44248.6	29702.4	
   147.454	    5478.1	       530	44173.9	29780.2	
   148.454	   5478.61	       530	44099.4	29857.6	
   149.454	    5479.1	       530	44025.3	29934.5	
   150.454	   5479.56	       530	43951.5	30011.1	
   151.454	   5479.99	       530	43878	30087.3	
   152.454	    5480.4	       530	43804.9	30163.1	
   153.454	   5480.78	       530	43732	30238.6	
   154.454	   5481.14	       530	43659.4	30313.7	
   155.454	   5481.48	       530	43587.1	30388.4	
   156.454	   5481.81	       530	43515	30462.8	
   157.454	   5482.13	       530	43443.3	30536.8	
   158.454	   5482.43	       530	43371.9	30610.6	
   159.454	   5482.71	       530	43300.8	30683.9	
   160.454	   5482.99	       530	43229.9	30757	
   161.454	   5483.25	       530	43159.4	30829.6	
   162.454	   5483.49	       530	43089.1	30902	
   163.454	   5483.72	       530	43019.1	30974	
   164.454	   5483.95	       530	42949.4	31045.7	
   165.454	   5484.15	       530	42879.9	31117.1	
   166.454	   5484.35	       530	42810.7	31188.2	
   167.454	   5484.55	       530	42741.8	31259	
   168.454	   5484.72	       530	42673.1	31329.5	
   169.454	   5484.89	       530	42604.6	31399.8	
   170.454	   5484.96	       530	42536.4	31469.6	
   171.454	   5484.98	       530	42468.3	31539.1	
   172.454	   5484.96	       530	42400.4	31608.4	
   173.454	    5484.9	       530	42332.6	31677.3	
   174.454	   5484.82	       530	42265.1	31746.1	
   175.454	   5484.71	       530	42197.7	31814.5	
   176.454	   5484.58	       530	42130.4	31882.8	
   177.454	   5484.43	       530	42063.3	31950.9	
   178.454	   5484.27	       530	41996.4	32018.7	
   179.454	    5484.1	       530	41929.6	32086.4	
   180.454	   5483.92	       530	41863	32153.8	
   181.454	   5483.73	       530	41796.6	32221.1	
   182.454	   5483.53	       530	41730.3	32288.2	
   183.454	   5483.32	       530	41664.2	32355.1	
   184.454	    5483.1	       530	41598.2	32421.9	
   185.454	   5482.88	       530	41532.3	32488.5	
   186.454	   5482.66	       530	41466.6	32554.9	
   187.454	   5482.42	       530	41401	32621.2	
   188.454	   5482.19	       530	41335.6	32687.3	
   189.454	   5481.95	       530	41270.2	32753.3	
   190.454	   5481.65	       530	41205	32819.1	
   191.454	   5481.34	       530	41139.9	32884.7	
   192.454	   5481.01	       530	41074.9	32950.1	
   193.454	   5480.67	       530	41010	33015.4	
   194.454	   5480.31	       530	40945.2	33080.6	
   195.454	    5479.9	       530	40880.6	33145.5	
   196.454	   5479.47	       530	40816	33210.3	
   197.454	   5479.02	       530	40751.4	33275	
   198.454	   5478.56	       530	40687	33339.5	
   199.454	   5478.08	       530	40622.7	33403.9	
       200	   5477.81	       530	40587.6	33439.1	
