 % Reservoir Output 
 % Unit for Total Component: B.O. ~ lb/day || Compositional ~ mol/day 

time	pres	temp	comp0	comp1	
day	psi	F	**	**	
         0	   2999.93	       530	8.27248e+006	0	
    0.0001	   2999.94	       530	8.27248e+006	5.34422	
0.000247239	   2999.95	       530	8.27248e+006	13.16	
0.000466257	   2999.97	       530	8.27247e+006	24.7197	
0.000790761	      3000	       530	8.27247e+006	41.711	
0.00126884	   3000.05	       530	8.27247e+006	66.462	
 0.0019676	   3000.12	       530	8.27246e+006	102.06	
0.00297789	   3000.21	       530	8.27246e+006	152.377	
0.00441803	   3000.34	       530	8.27244e+006	221.888	
0.00643526	   3000.51	       530	8.27243e+006	315.22	
 0.0092045	   3000.73	       530	8.27241e+006	436.446	
 0.0129271	      3001	       530	8.27238e+006	588.413	
 0.0178357	   3001.33	       530	8.27234e+006	772.522	
 0.0242126	   3001.69	       530	8.2723e+006	989.312	
 0.0324307	    3002.1	       530	8.27223e+006	1239.89	
 0.0430236	   3002.54	       530	8.27215e+006	1528.03	
  0.056798	   3003.61	       530	8.27205e+006	2118	
 0.0739331	   3005.78	       530	8.27192e+006	3229.7	
  0.092666	   3008.98	       530	8.27178e+006	4816.66	
   0.11301	    3013.2	       530	8.27162e+006	6897.9	
   0.13453	   3018.26	       530	8.27146e+006	9421.04	
  0.157694	   3024.11	       530	8.27127e+006	12433.4	
  0.182396	   3030.87	       530	8.27108e+006	15909.8	
  0.209014	   3038.62	       530	8.27087e+006	19891.8	
  0.237542	   3047.36	       530	8.27064e+006	24363.8	
    0.2682	    3057.1	       530	8.27038e+006	29343.5	
  0.301526	      3068	       530	8.2701e+006	34903.4	
  0.337181	   3079.89	       530	8.26979e+006	40966.9	
  0.375924	      3093	       530	8.26945e+006	47643.5	
  0.417317	   3107.12	       530	8.26908e+006	54836.9	
  0.462043	   3122.44	       530	8.26867e+006	62644.2	
  0.510449	   3139.04	       530	8.2682e+006	71105.2	
  0.563112	   3157.08	       530	8.26769e+006	80299.9	
  0.620477	   3176.64	       530	8.26711e+006	90282	
  0.683309	   3197.95	       530	8.26645e+006	101161	
  0.751478	    3220.9	       530	8.26572e+006	112888	
  0.825405	   3245.56	       530	8.26489e+006	125508	
  0.905245	   3271.93	       530	8.26396e+006	139018	
  0.991471	    3300.1	       530	8.26292e+006	153466	
   1.08472	   3330.18	       530	8.26175e+006	168925	
   1.18575	   3362.32	       530	8.26043e+006	185476	
   1.29462	   3396.45	       530	8.25895e+006	203087	
   1.41216	   3432.69	       530	8.25728e+006	221840	
   1.53983	   3471.36	       530	8.25539e+006	241907	
   1.67606	   3511.85	       530	8.25329e+006	262983	
   1.82135	   3554.14	       530	8.25094e+006	285082	
   1.97817	   3598.77	       530	8.24829e+006	308505	
   2.14692	   3645.63	       530	8.24531e+006	333223	
   2.32636	   3694.18	       530	8.242e+006	358970	
   2.52041	    3745.2	       530	8.23826e+006	386203	
   2.72952	    3798.5	       530	8.23404e+006	414861	
    2.9527	   3853.51	       530	8.22933e+006	444688	
   3.19187	   3910.37	       530	8.22405e+006	475812	
   3.44835	   3968.99	       530	8.21814e+006	508256	
   3.72146	   4027.65	       530	8.21158e+006	541812	
   4.01431	   4083.58	       530	8.20425e+006	576777	
   4.32783	   4140.84	       530	8.19611e+006	613097	
   4.66388	   4199.33	       530	8.18703e+006	650806	
   5.02423	   4258.86	       530	8.17693e+006	689909	
   5.41084	   4319.22	       530	8.16568e+006	730412	
   5.82497	   4380.04	       530	8.15318e+006	772230	
   6.26759	   4440.89	       530	8.13935e+006	815251	
   6.73969	   4501.31	       530	8.12408e+006	859360	
    7.2468	   4561.39	       530	8.10714e+006	904844	
   7.78907	   4620.47	       530	8.08844e+006	951488	
   8.36897	    4678.2	       530	8.06784e+006	999282	
   8.99025	    4734.3	       530	8.04514e+006	1.04832e+006	
   9.65443	   4788.28	       530	8.0202e+006	1.0985e+006	
   10.3699	   4840.14	       530	7.99266e+006	1.15025e+006	
   11.1361	   4889.23	       530	7.96247e+006	1.20332e+006	
   11.9554	   4935.19	       530	7.92949e+006	1.25773e+006	
   12.8345	    4977.9	       530	7.8934e+006	1.31376e+006	
   13.7745	   5016.83	       530	7.85412e+006	1.37139e+006	
   14.7745	   5049.37	       530	7.81172e+006	1.43068e+006	
   15.7745	   5077.26	       530	7.7688e+006	1.48823e+006	
   16.7745	    5101.2	       530	7.72543e+006	1.54429e+006	
   17.7745	   5121.74	       530	7.68166e+006	1.59907e+006	
   18.7745	   5139.34	       530	7.63755e+006	1.65275e+006	
   19.7745	    5154.4	       530	7.59315e+006	1.7055e+006	
   20.7745	   5167.27	       530	7.5485e+006	1.75745e+006	
   21.7745	   5178.26	       530	7.50364e+006	1.80871e+006	
   22.7745	   5187.63	       530	7.4586e+006	1.8594e+006	
   23.7745	   5195.61	       530	7.41341e+006	1.90958e+006	
   24.7745	   5202.41	       530	7.36808e+006	1.95935e+006	
   25.7745	    5208.2	       530	7.32265e+006	2.00877e+006	
   26.7745	   5213.11	       530	7.27711e+006	2.05787e+006	
   27.7745	   5217.28	       530	7.2315e+006	2.10673e+006	
   28.7745	   5220.83	       530	7.18582e+006	2.15536e+006	
   29.7745	   5223.83	       530	7.14008e+006	2.20381e+006	
   30.7745	   5226.37	       530	7.09429e+006	2.25211e+006	
   31.7745	   5228.53	       530	7.04846e+006	2.30027e+006	
   32.7745	   5230.35	       530	7.00259e+006	2.34832e+006	
   33.7745	    5231.9	       530	6.95669e+006	2.39628e+006	
   34.7745	    5233.2	       530	6.91077e+006	2.44416e+006	
   35.7745	   5234.31	       530	6.86482e+006	2.49198e+006	
   36.7745	   5235.24	       530	6.81886e+006	2.53974e+006	
   37.7745	   5236.03	       530	6.77288e+006	2.58745e+006	
   38.7745	    5236.7	       530	6.72689e+006	2.63513e+006	
   39.7745	   5237.26	       530	6.68088e+006	2.68277e+006	
   40.7745	   5237.74	       530	6.63487e+006	2.73039e+006	
   41.7745	   5238.14	       530	6.58885e+006	2.77798e+006	
   42.7745	   5238.48	       530	6.54282e+006	2.82555e+006	
   43.7745	   5238.77	       530	6.49679e+006	2.87311e+006	
   44.7745	   5239.02	       530	6.45075e+006	2.92066e+006	
   45.7745	   5239.23	       530	6.40471e+006	2.96819e+006	
   46.7745	   5239.41	       530	6.35866e+006	3.01572e+006	
   47.7745	   5239.56	       530	6.31261e+006	3.06324e+006	
   48.7745	   5239.69	       530	6.26656e+006	3.11075e+006	
   49.7745	    5239.8	       530	6.22051e+006	3.15826e+006	
   50.7745	    5239.9	       530	6.17445e+006	3.20576e+006	
   51.7745	   5239.99	       530	6.12839e+006	3.25326e+006	
   52.7745	   5240.06	       530	6.08233e+006	3.30076e+006	
   53.7745	   5240.12	       530	6.03627e+006	3.34825e+006	
   54.7745	   5240.18	       530	5.99021e+006	3.39575e+006	
   55.7745	   5240.23	       530	5.94415e+006	3.44324e+006	
   56.7745	   5240.28	       530	5.89808e+006	3.49073e+006	
   57.7745	   5240.32	       530	5.85202e+006	3.53822e+006	
   58.7745	   5240.35	       530	5.80595e+006	3.58571e+006	
   59.7745	   5240.39	       530	5.75989e+006	3.6332e+006	
   60.7745	   5240.42	       530	5.71382e+006	3.68069e+006	
   61.7745	   5240.45	       530	5.66775e+006	3.72818e+006	
   62.7745	   5240.47	       530	5.62168e+006	3.77567e+006	
   63.7745	    5240.5	       530	5.57561e+006	3.82315e+006	
   64.7745	   5240.52	       530	5.52955e+006	3.87064e+006	
   65.7745	   5240.54	       530	5.48348e+006	3.91813e+006	
   66.7745	   5240.57	       530	5.43741e+006	3.96562e+006	
   67.7745	   5240.59	       530	5.39133e+006	4.01311e+006	
   68.7745	   5240.61	       530	5.34526e+006	4.0606e+006	
   69.7745	   5240.62	       530	5.29919e+006	4.10809e+006	
   70.7745	   5240.64	       530	5.25312e+006	4.15557e+006	
   71.7745	   5240.66	       530	5.20705e+006	4.20306e+006	
   72.7745	   5240.68	       530	5.16098e+006	4.25055e+006	
   73.7745	    5240.7	       530	5.11491e+006	4.29804e+006	
   74.7745	   5240.71	       530	5.06884e+006	4.34553e+006	
   75.7745	   5240.73	       530	5.02276e+006	4.39302e+006	
   76.7745	   5240.75	       530	4.97669e+006	4.44051e+006	
   77.7745	   5240.77	       530	4.93062e+006	4.488e+006	
   78.7745	   5240.78	       530	4.88455e+006	4.53549e+006	
   79.7745	    5240.8	       530	4.83848e+006	4.58298e+006	
   80.7745	   5240.82	       530	4.79241e+006	4.63047e+006	
   81.7745	   5240.84	       530	4.74634e+006	4.67796e+006	
   82.7745	   5240.87	       530	4.70027e+006	4.72545e+006	
   83.7745	   5240.89	       530	4.65421e+006	4.77293e+006	
   84.7745	   5240.94	       530	4.60815e+006	4.82042e+006	
   85.7745	   5241.01	       530	4.56212e+006	4.86789e+006	
   86.7745	   5241.14	       530	4.51611e+006	4.91534e+006	
   87.7745	    5241.4	       530	4.47019e+006	4.96275e+006	
   88.7745	   5241.95	       530	4.42443e+006	5.01007e+006	
   89.7745	   5243.08	       530	4.37901e+006	5.05719e+006	
   90.7745	   5245.34	       530	4.33426e+006	5.10393e+006	
   91.7745	   5249.59	       530	4.29072e+006	5.14994e+006	
   92.7745	   5256.95	       530	4.24912e+006	5.19475e+006	
   93.7745	   5268.44	       530	4.21026e+006	5.23779e+006	
   94.7745	   5284.41	       530	4.1747e+006	5.27853e+006	
   95.7745	   5304.25	       530	4.14258e+006	5.31667e+006	
   96.7745	    5326.6	       530	4.11361e+006	5.35213e+006	
   97.7745	   5349.82	       530	4.08726e+006	5.38504e+006	
   98.7745	    5372.7	       530	4.06305e+006	5.41559e+006	
   99.7745	   5394.16	       530	4.04044e+006	5.44408e+006	
       100	   5398.93	       530	4.03541e+006	5.45041e+006	
